Tamano del Vector;B1:Mejor Tiempo (us); B1:Peor Tiempo(us); B1:Tiempo Medio(us);;B2:Mejor Tiempo (us); B2:Peor Tiempo(us); B2:Tiempo Medio(us);;BInter:Mejor Tiempo (us); BInter:Peor Tiempo(us); BInter:Tiempo Medio(us)
1000;6.000000;12.500000;6.680000;;6.000000;6.200000;6.060000;;0.600000;0.800000;0.680000
2000;7.500000;11.100000;7.940000;;7.500000;7.700000;7.600000;;0.800000;0.800000;0.800000
3000;8.900000;14.600000;10.210000;;8.800000;15.300000;9.580000;;0.800000;1.600000;0.890000
4000;10.000000;13.400000;10.440000;;10.000000;10.200000;10.090000;;0.800000;0.900000;0.880000
5000;12.300000;16.600000;12.780000;;12.300000;12.400000;12.330000;;0.900000;1.000000;0.980000
6000;13.900000;20.300000;14.570000;;13.800000;14.000000;13.920000;;1.100000;1.200000;1.110000
7000;16.100000;118.400000;26.400000;;16.100000;16.400000;16.240000;;1.300000;1.500000;1.340000
8000;17.900000;34.200000;19.640000;;18.100000;18.400000;18.230000;;1.500000;1.900000;1.650000
9000;20.900000;63.000000;25.410000;;21.400000;24.200000;21.860000;;1.900000;2.300000;2.060000
10000;22.400000;43.900000;24.580000;;22.800000;23.400000;23.040000;;2.000000;2.600000;2.210000
11000;23.700000;43.700000;25.820000;;24.400000;25.400000;24.630000;;2.100000;2.200000;2.170000
12000;26.000000;42.900000;27.760000;;26.500000;27.300000;26.830000;;2.500000;3.000000;2.720000
13000;27.800000;100.000000;40.320000;;28.400000;247.000000;55.530000;;2.700000;7.700000;3.950000
14000;28.900000;49.300000;31.160000;;29.800000;30.700000;30.220000;;3.000000;3.900000;3.370000
15000;30.500000;52.800000;32.920000;;31.900000;32.400000;32.140000;;3.200000;4.000000;3.420000
16000;32.200000;58.100000;36.450000;;32.500000;50.200000;35.300000;;2.600000;7.700000;3.300000
17000;36.400000;79.300000;41.540000;;36.800000;37.600000;37.110000;;2.600000;3.000000;2.750000
18000;38.300000;49.300000;39.530000;;38.800000;39.600000;39.100000;;2.700000;3.000000;2.830000
19000;40.100000;298.400000;69.330000;;41.000000;134.500000;50.560000;;2.900000;3.300000;3.000000
20000;42.500000;105.400000;57.910000;;44.700000;70.600000;55.580000;;4.300000;7.700000;5.680000
21000;44.900000;138.100000;56.090000;;46.500000;343.900000;77.390000;;4.500000;5.500000;4.950000
22000;46.300000;76.300000;49.720000;;48.800000;56.200000;50.050000;;4.600000;5.600000;5.050000
23000;49.000000;80.900000;53.580000;;51.100000;52.800000;51.890000;;4.400000;5.800000;5.190000
24000;49.500000;69.200000;53.090000;;50.400000;53.700000;51.010000;;3.500000;5.200000;3.780000
25000;51.700000;393.600000;94.060000;;52.400000;134.900000;64.150000;;3.500000;5.100000;3.890000
26000;53.200000;96.400000;60.900000;;54.000000;73.200000;57.300000;;3.700000;5.400000;4.030000
27000;55.300000;80.500000;58.550000;;56.000000;56.900000;56.330000;;3.800000;4.100000;3.860000
28000;57.000000;101.000000;62.660000;;57.600000;72.800000;61.240000;;3.900000;6.700000;4.290000
29000;58.800000;85.100000;63.040000;;59.700000;62.400000;60.260000;;3.900000;4.400000;4.090000
30000;60.900000;145.200000;70.930000;;61.700000;378.900000;95.810000;;4.000000;4.400000;4.130000
31000;62.500000;143.300000;73.570000;;62.600000;379.900000;95.740000;;4.100000;4.500000;4.250000
32000;64.000000;103.900000;68.600000;;64.800000;73.100000;66.390000;;4.200000;4.700000;4.390000
33000;70.600000;135.800000;77.840000;;70.800000;77.200000;72.260000;;4.400000;4.800000;4.530000
34000;71.700000;109.200000;79.120000;;72.700000;100.200000;76.440000;;4.500000;5.600000;4.730000
35000;74.200000;101.700000;78.580000;;74.500000;79.000000;75.460000;;4.600000;16.200000;6.030000
36000;76.300000;109.000000;83.060000;;76.500000;93.500000;79.010000;;4.800000;6.400000;5.030000
37000;77.900000;447.000000;120.600000;;78.700000;225.400000;95.480000;;4.800000;5.300000;4.910000
38000;235.500000;319.800000;286.950000;;280.700000;562.900000;319.610000;;5.000000;6.700000;5.380000
39000;289.600000;331.600000;299.780000;;288.500000;329.100000;299.740000;;5.400000;7.200000;5.650000
40000;297.200000;345.400000;309.140000;;298.300000;356.400000;310.460000;;5.400000;7.900000;5.790000
41000;292.600000;351.000000;304.850000;;290.800000;323.900000;306.420000;;5.400000;5.800000;5.600000
42000;309.800000;361.200000;325.440000;;308.100000;402.800000;331.050000;;5.600000;8.200000;6.040000
43000;285.800000;587.900000;348.800000;;275.400000;388.900000;317.630000;;5.600000;40.900000;9.590000
44000;272.300000;366.000000;303.840000;;269.900000;330.100000;293.910000;;5.900000;10.700000;7.170000
45000;290.200000;362.500000;320.950000;;290.200000;387.100000;317.900000;;5.900000;8.900000;6.480000
46000;287.800000;409.100000;314.540000;;290.200000;330.400000;304.540000;;5.900000;7.600000;6.290000
47000;286.000000;338.100000;301.230000;;273.900000;387.600000;308.250000;;6.000000;8.700000;6.510000
48000;289.200000;323.300000;301.940000;;269.400000;381.200000;305.080000;;6.100000;7.100000;6.360000
49000;305.400000;633.700000;342.790000;;289.000000;336.400000;314.410000;;6.200000;6.500000;6.330000
50000;311.800000;348.300000;322.520000;;315.300000;348.300000;328.770000;;6.300000;7.100000;6.680000
51000;307.100000;414.000000;330.430000;;309.400000;630.800000;353.660000;;6.400000;8.100000;6.900000
52000;280.300000;366.500000;300.150000;;281.400000;309.200000;292.360000;;6.500000;7.500000;6.870000
53000;280.700000;381.100000;305.690000;;277.300000;366.100000;299.710000;;6.700000;11.300000;8.030000
54000;289.200000;452.600000;321.670000;;287.700000;600.800000;340.920000;;6.700000;7.700000;7.100000
55000;293.400000;329.600000;307.380000;;271.100000;327.600000;306.500000;;6.800000;7.800000;7.200000
56000;300.800000;364.700000;320.130000;;283.100000;335.100000;314.070000;;6.900000;8.300000;7.320000
57000;308.000000;454.700000;338.640000;;304.800000;706.500000;359.880000;;7.100000;7.400000;7.260000
58000;315.600000;400.700000;332.450000;;316.600000;431.000000;338.770000;;7.000000;7.700000;7.340000
59000;317.700000;439.300000;366.740000;;321.000000;451.300000;378.520000;;7.500000;24.200000;12.390000
60000;319.900000;457.700000;349.220000;;324.800000;685.100000;382.290000;;7.300000;8.100000;7.630000
61000;326.700000;427.400000;348.130000;;333.400000;452.100000;360.440000;;7.400000;8.200000;7.690000
62000;328.100000;416.600000;353.580000;;329.100000;446.400000;361.850000;;7.500000;9.400000;8.140000
63000;324.700000;402.800000;344.580000;;325.100000;452.300000;351.030000;;7.600000;9.300000;7.990000
64000;324.400000;763.400000;419.650000;;324.200000;688.800000;392.190000;;7.700000;29.400000;11.450000
65000;418.700000;563.600000;524.600000;;454.800000;568.300000;530.540000;;7.800000;9.500000;8.280000
66000;481.200000;662.500000;517.010000;;482.600000;546.000000;501.830000;;7.900000;15.600000;9.300000
67000;492.600000;563.600000;523.170000;;489.000000;554.300000;517.030000;;8.200000;23.100000;12.160000
68000;495.900000;552.400000;523.290000;;492.500000;554.300000;518.680000;;8.300000;21.800000;12.930000
69000;496.200000;589.100000;530.260000;;498.800000;621.200000;534.930000;;8.300000;22.000000;12.560000
70000;495.200000;603.400000;541.620000;;488.300000;577.300000;529.440000;;8.400000;19.600000;12.110000
71000;511.800000;627.200000;551.290000;;506.000000;561.300000;538.150000;;8.400000;20.500000;12.370000
72000;518.800000;609.200000;557.390000;;523.900000;574.800000;551.820000;;9.100000;22.000000;12.520000
73000;531.000000;597.900000;568.720000;;528.500000;600.900000;565.240000;;8.900000;20.200000;12.210000
74000;532.800000;799.000000;614.580000;;525.600000;686.900000;586.600000;;9.000000;17.700000;12.560000
75000;541.500000;657.100000;595.590000;;540.000000;679.600000;593.400000;;9.600000;14.600000;11.820000
76000;552.800000;745.000000;618.340000;;557.700000;974.800000;638.210000;;8.900000;20.100000;10.740000
77000;553.500000;713.900000;611.290000;;545.400000;748.100000;610.850000;;9.100000;12.400000;10.300000
78000;566.900000;654.100000;609.540000;;564.900000;750.500000;621.050000;;9.300000;13.500000;10.310000
79000;653.200000;852.800000;817.030000;;788.500000;903.000000;817.320000;;9.300000;11.900000;9.940000
80000;828.000000;921.300000;858.360000;;810.500000;864.200000;829.420000;;9.500000;11.800000;9.990000
81000;863.100000;926.000000;888.520000;;869.300000;1012.900000;895.770000;;9.400000;10.100000;9.840000
82000;861.200000;1130.200000;957.340000;;805.700000;984.500000;857.040000;;9.600000;16.500000;10.760000
83000;869.400000;993.800000;907.820000;;830.600000;972.300000;853.390000;;9.700000;10.600000;10.280000
84000;873.600000;973.100000;923.730000;;843.800000;888.900000;855.590000;;9.800000;10.600000;10.240000
85000;900.600000;1171.900000;954.920000;;848.700000;1241.600000;908.380000;;10.100000;18.100000;11.700000
86000;713.500000;977.200000;755.420000;;681.000000;739.100000;698.620000;;10.600000;14.900000;11.360000
87000;909.500000;1166.400000;991.470000;;849.800000;1018.200000;914.650000;;11.100000;14.000000;11.930000
88000;865.600000;925.700000;889.340000;;940.600000;1008.700000;965.480000;;11.400000;13.900000;12.350000
89000;953.100000;1031.400000;981.150000;;864.600000;1118.100000;905.950000;;15.500000;17.800000;16.640000
90000;766.300000;1007.000000;806.540000;;717.700000;853.800000;743.240000;;10.700000;11.400000;10.860000
91000;778.200000;864.500000;807.410000;;700.400000;844.700000;736.610000;;11.700000;13.000000;12.250000
92000;905.800000;1095.900000;986.340000;;892.000000;1075.800000;953.110000;;11.400000;13.400000;12.210000
93000;722.300000;1132.300000;778.200000;;803.200000;905.200000;831.040000;;12.200000;13.500000;12.870000
94000;712.200000;843.500000;743.560000;;793.900000;869.400000;816.500000;;15.100000;29.400000;20.260000
95000;702.900000;983.700000;762.540000;;799.500000;968.400000;844.400000;;12.600000;40.300000;19.360000
96000;716.500000;903.800000;746.340000;;789.900000;901.400000;833.970000;;13.400000;25.600000;16.530000
97000;742.200000;844.300000;767.680000;;802.700000;886.700000;846.860000;;13.000000;16.500000;14.170000
98000;940.600000;1143.000000;1050.030000;;1017.400000;1205.600000;1072.940000;;11.400000;13.900000;12.370000
99000;838.100000;1172.500000;898.440000;;794.600000;1168.700000;847.040000;;12.300000;16.300000;13.070000
100000;1004.000000;1131.700000;1054.990000;;978.800000;1090.600000;1028.540000;;12.400000;23.600000;14.000000
