Tamano del Vector;B1:Mejor Tiempo (us); B1:Peor Tiempo(us); B1:Tiempo Medio(us);;B2:Mejor Tiempo (us); B2:Peor Tiempo(us); B2:Tiempo Medio(us);;BInter:Mejor Tiempo (us); BInter:Peor Tiempo(us); BInter:Tiempo Medio(us)
1000;6.200000;26.300000;8.720000;;6.200000;10.400000;6.960000;;0.600000;1.300000;0.720000
2000;7.600000;11.100000;8.010000;;7.600000;8.000000;7.730000;;0.700000;0.800000;0.740000
3000;9.100000;12.500000;9.560000;;9.100000;9.400000;9.230000;;0.800000;0.900000;0.820000
4000;10.200000;11.900000;10.470000;;10.200000;10.400000;10.310000;;0.900000;1.000000;0.950000
5000;12.600000;15.900000;13.000000;;12.600000;13.000000;12.730000;;1.000000;1.100000;1.030000
6000;14.300000;20.500000;15.250000;;14.300000;14.600000;14.410000;;1.100000;1.300000;1.180000
7000;16.500000;21.500000;17.120000;;16.700000;19.600000;17.100000;;1.400000;1.800000;1.570000
8000;18.700000;22.800000;19.210000;;18.900000;19.500000;19.070000;;1.500000;1.700000;1.580000
9000;22.200000;35.900000;23.700000;;22.800000;27.600000;23.670000;;2.300000;2.700000;2.490000
10000;22.600000;186.200000;39.350000;;23.100000;170.100000;37.920000;;1.900000;2.800000;2.120000
11000;24.700000;188.900000;41.320000;;25.200000;26.200000;25.500000;;2.000000;2.300000;2.100000
12000;26.300000;50.300000;28.930000;;27.000000;30.300000;27.570000;;2.300000;2.600000;2.400000
13000;28.100000;53.400000;30.780000;;28.800000;36.400000;29.890000;;2.600000;3.200000;2.840000
14000;30.100000;236.800000;51.320000;;31.000000;37.100000;32.620000;;3.300000;8.200000;3.940000
15000;31.800000;60.100000;34.790000;;33.100000;48.200000;34.940000;;3.500000;4.300000;3.810000
16000;33.600000;48.600000;36.790000;;35.400000;47.100000;37.560000;;3.800000;6.400000;4.330000
17000;37.700000;87.300000;43.600000;;39.600000;43.500000;40.260000;;3.700000;4.400000;4.100000
18000;39.800000;64.900000;42.920000;;41.300000;59.800000;43.470000;;4.100000;4.700000;4.410000
19000;41.900000;70.900000;46.310000;;43.700000;59.500000;45.890000;;4.000000;4.900000;4.570000
20000;43.900000;55.400000;45.550000;;46.200000;50.200000;46.870000;;4.600000;5.400000;5.080000
21000;46.400000;90.700000;51.830000;;48.300000;53.400000;49.460000;;4.800000;5.600000;5.210000
22000;48.400000;64.200000;52.480000;;50.500000;63.500000;53.420000;;4.800000;7.000000;5.510000
23000;50.700000;64.100000;53.170000;;52.500000;54.000000;53.100000;;4.800000;5.900000;5.290000
24000;52.700000;86.800000;56.890000;;55.100000;66.600000;56.950000;;5.500000;7.400000;6.080000
25000;53.900000;64.300000;56.110000;;56.300000;64.800000;58.430000;;5.200000;6.100000;5.760000
26000;57.000000;86.300000;61.760000;;60.000000;61.600000;60.750000;;5.300000;6.500000;5.980000
27000;59.700000;93.800000;64.240000;;62.000000;65.900000;63.240000;;5.700000;6.600000;6.270000
28000;60.700000;74.900000;63.820000;;63.900000;67.100000;65.340000;;6.500000;7.000000;6.670000
29000;63.000000;98.700000;68.610000;;65.100000;68.800000;67.070000;;5.300000;7.400000;6.370000
30000;64.900000;81.100000;69.270000;;68.600000;73.000000;69.450000;;6.900000;10.200000;7.460000
31000;67.500000;98.400000;73.640000;;69.700000;74.900000;72.200000;;5.600000;9.000000;7.130000
32000;70.200000;85.300000;72.440000;;72.600000;82.400000;74.810000;;6.200000;8.000000;7.370000
33000;74.300000;115.100000;81.100000;;78.400000;97.200000;80.830000;;6.200000;7.900000;7.140000
34000;77.700000;143.100000;85.410000;;80.700000;92.100000;83.950000;;5.700000;8.600000;7.350000
35000;78.100000;99.700000;83.070000;;80.600000;87.200000;84.120000;;6.200000;8.500000;7.780000
36000;77.700000;93.400000;80.720000;;80.000000;91.400000;82.620000;;5.500000;8.200000;6.730000
37000;82.200000;271.900000;108.200000;;84.800000;510.100000;128.500000;;6.200000;11.200000;8.430000
38000;81.800000;116.100000;87.640000;;83.200000;97.300000;88.570000;;6.100000;8.900000;6.990000
39000;83.700000;132.500000;90.280000;;84.600000;88.600000;85.840000;;5.200000;5.700000;5.390000
40000;85.900000;108.700000;92.080000;;86.100000;99.000000;90.020000;;5.100000;5.700000;5.430000
41000;86.700000;142.100000;94.820000;;88.000000;91.000000;89.550000;;5.200000;5.800000;5.550000
42000;92.900000;186.800000;107.550000;;94.800000;123.600000;102.780000;;5.400000;6.900000;6.000000
43000;98.800000;351.700000;130.820000;;100.600000;642.400000;160.700000;;5.500000;6.800000;5.900000
44000;94.100000;128.600000;100.200000;;94.800000;106.400000;98.220000;;5.400000;8.100000;6.060000
45000;94.600000;125.500000;100.730000;;95.400000;102.100000;97.640000;;5.600000;6.100000;5.870000
46000;96.700000;133.900000;102.240000;;97.600000;116.300000;102.760000;;5.700000;6.300000;6.030000
47000;99.300000;173.500000;108.580000;;99.100000;109.200000;102.740000;;5.800000;7.700000;6.210000
48000;101.300000;187.300000;114.980000;;101.500000;121.900000;107.650000;;5.900000;6.500000;6.240000
49000;104.200000;150.500000;112.750000;;104.700000;117.400000;108.610000;;6.100000;8.200000;6.720000
50000;103.500000;156.600000;113.030000;;104.400000;118.700000;108.620000;;6.300000;8.400000;6.740000
51000;104.800000;152.800000;112.890000;;106.900000;122.800000;110.430000;;6.200000;6.800000;6.460000
52000;108.200000;164.600000;117.430000;;108.900000;130.500000;113.350000;;6.400000;10.200000;7.090000
53000;109.700000;146.200000;116.160000;;109.600000;119.500000;112.650000;;6.400000;8.800000;6.940000
54000;111.200000;170.500000;121.700000;;113.100000;136.000000;120.310000;;6.500000;7.500000;6.970000
55000;113.200000;157.200000;121.450000;;115.700000;126.300000;117.990000;;6.700000;7.600000;7.060000
56000;114.700000;150.600000;120.600000;;117.300000;128.400000;120.530000;;6.800000;7.600000;7.130000
57000;116.600000;156.800000;123.590000;;118.200000;126.500000;120.350000;;6.800000;8.100000;7.180000
58000;311.800000;348.900000;337.120000;;333.300000;407.900000;346.360000;;7.100000;8.300000;7.620000
59000;339.700000;424.900000;356.740000;;336.500000;371.500000;355.110000;;7.500000;8.300000;7.770000
60000;358.800000;519.700000;396.840000;;359.600000;415.700000;380.140000;;7.300000;8.900000;7.820000
61000;350.800000;664.100000;404.100000;;348.500000;857.900000;424.180000;;7.700000;9.200000;8.270000
62000;357.700000;439.000000;386.780000;;355.700000;468.000000;387.130000;;7.800000;8.400000;7.980000
63000;358.300000;560.000000;389.480000;;357.100000;858.900000;418.990000;;7.600000;8.400000;7.890000
64000;353.900000;423.000000;379.200000;;354.100000;437.400000;377.630000;;7.900000;8.400000;8.100000
65000;318.800000;444.500000;348.610000;;319.800000;423.600000;343.400000;;7.900000;13.900000;8.810000
66000;501.100000;585.300000;532.590000;;508.400000;626.300000;549.560000;;7.900000;17.500000;9.350000
67000;340.400000;543.400000;368.650000;;340.700000;368.900000;353.160000;;8.100000;14.500000;9.210000
68000;342.700000;590.300000;385.360000;;344.500000;445.800000;374.700000;;8.300000;8.900000;8.660000
69000;333.400000;456.200000;353.050000;;331.100000;343.800000;335.540000;;8.300000;9.200000;8.720000
70000;362.700000;569.000000;401.500000;;362.700000;442.000000;388.870000;;8.400000;10.200000;9.050000
71000;353.600000;641.800000;385.540000;;352.900000;390.600000;363.870000;;8.500000;14.300000;9.680000
72000;347.100000;515.500000;369.260000;;344.900000;381.800000;354.640000;;8.600000;9.400000;9.040000
73000;355.000000;675.500000;409.690000;;356.700000;440.700000;393.540000;;8.600000;9.600000;9.090000
74000;556.700000;609.400000;573.390000;;557.900000;610.300000;576.930000;;8.800000;10.300000;9.290000
75000;595.300000;747.900000;636.720000;;610.600000;786.300000;664.150000;;8.900000;11.600000;9.760000
76000;358.200000;704.900000;396.500000;;358.500000;562.500000;384.190000;;9.100000;10.000000;9.550000
77000;371.000000;600.500000;403.370000;;375.100000;406.500000;382.940000;;9.200000;10.200000;9.680000
78000;388.900000;585.600000;428.290000;;383.600000;448.500000;413.080000;;9.300000;10.600000;9.930000
79000;387.500000;610.300000;433.630000;;385.300000;439.800000;414.690000;;9.300000;12.200000;10.090000
80000;415.500000;654.800000;455.900000;;416.000000;565.700000;443.050000;;9.600000;10.500000;9.960000
81000;385.800000;771.200000;435.750000;;386.600000;1227.300000;481.900000;;9.500000;10.600000;10.000000
82000;503.900000;695.600000;630.120000;;580.700000;674.100000;636.970000;;9.600000;14.100000;10.560000
83000;621.400000;739.100000;654.070000;;619.700000;771.300000;652.600000;;9.800000;11.500000;10.400000
84000;634.800000;775.800000;673.860000;;632.300000;749.900000;670.490000;;9.900000;10.600000;10.190000
85000;803.600000;901.500000;852.060000;;809.100000;943.400000;868.860000;;10.000000;14.300000;10.860000
86000;545.200000;1192.300000;635.010000;;539.200000;702.300000;579.450000;;10.000000;15.600000;11.460000
87000;720.900000;828.100000;767.620000;;716.300000;807.600000;756.300000;;10.300000;11.200000;10.770000
88000;717.400000;821.700000;764.970000;;715.900000;840.500000;766.640000;;10.400000;11.100000;10.770000
89000;730.300000;870.300000;767.810000;;741.500000;903.200000;781.610000;;10.400000;11.500000;10.870000
90000;735.300000;842.200000;762.960000;;735.800000;877.400000;771.240000;;11.000000;14.000000;11.440000
91000;921.400000;1004.500000;968.510000;;924.300000;1036.200000;963.780000;;11.200000;13.700000;11.820000
92000;785.300000;1223.200000;876.600000;;790.700000;999.600000;846.030000;;12.900000;35.900000;17.600000
93000;754.900000;1115.200000;817.240000;;752.100000;1010.300000;803.220000;;10.800000;11.900000;11.170000
94000;766.600000;803.900000;786.340000;;697.400000;806.300000;774.280000;;10.900000;12.100000;11.210000
95000;764.100000;1013.300000;810.830000;;758.100000;841.600000;781.020000;;11.100000;12.000000;11.290000
96000;760.700000;943.700000;821.210000;;727.700000;975.100000;781.760000;;11.100000;14.800000;11.620000
97000;764.500000;1099.900000;840.570000;;773.500000;874.700000;807.390000;;12.000000;17.900000;12.750000
98000;804.100000;972.000000;850.840000;;804.200000;949.500000;843.460000;;12.000000;12.900000;12.250000
99000;785.500000;859.300000;804.090000;;747.600000;881.700000;811.230000;;12.200000;13.200000;12.460000
100000;789.600000;1017.400000;835.050000;;783.100000;853.100000;810.010000;;11.700000;15.200000;12.390000
